tau,coherence,info_flow,entropy,correlation_length,mean_K,mean_Phi
1.0,-0.12969330818508362,0.12451670771788156,5.711248345722406,1.0,0.001849097531843299,0.05755699762946999
2.0,-0.11922699288085929,0.2356643390961144,5.597006341894574,1.0,0.004039410504543163,0.052659988454744885
3.0,-0.10996025245830492,0.33906918981024503,5.50590504842522,1.0,0.005959318416558054,0.0483049015772969
4.0,-0.10169367171582405,0.43449926658094357,5.42548703055421,1.0,0.0076393599988057856,0.04446440110071939
5.0,-0.09428246721347358,0.5202517164915503,5.360778071022941,1.0,0.009108096098569704,0.04126171095057894
6.0,-0.08760953433015874,0.5963477394894647,5.305951038615833,1.0,0.010398151075060653,0.03844212116741515
7.0,-0.08161435494038796,0.6629161898557765,5.262820034583543,1.0,0.01153091749256838,0.03605615657408655
8.0,-0.0762289345793756,0.7198815597429529,5.227412166922934,1.0,0.012529130351955197,0.0338863125740449
9.0,-0.07136749211370574,0.7694404710590244,5.200961116038745,1.0,0.0134060744276253,0.03197563709179772
10.0,-0.06698217436699846,0.8116372967537183,5.179538970950075,1.0,0.014176323388912834,0.030341833146176257
11.0,-0.06299388895847083,0.8477185330538389,5.1645069429805925,1.0,0.01485466912227431,0.02890388952520964
12.0,-0.0593358268480829,0.87683053033837,5.140472657778444,1.0,0.015452161513815026,0.02766034606813486
13.0,-0.0559919703797116,0.9005202713405648,5.128042248278032,1.0,0.015979414886577205,0.026585243818463205
14.0,-0.05295438450674404,0.9199909889572019,5.108877135719955,1.0,0.01644563584888821,0.02573872497033236
15.0,-0.05019767007223652,0.9356777598627719,5.092158289290424,1.0,0.016862114962139664,0.024884875016197017
16.0,-0.0476718689485533,0.9478614929602776,5.083404663306673,1.0,0.017230309135696738,0.02416111036945256
17.0,-0.04536293837633489,0.9574046351568244,5.064525361218392,1.0,0.01755712096738159,0.02357732221998728
18.0,-0.04326798386611657,0.9648211446836601,5.043341137890962,1.0,0.017849604734223576,0.023242243043546166
19.0,-0.04132229399550129,0.9702358092516349,5.024134666142402,1.0,0.018118913760545148,0.022553043454975063
20.0,-0.039556272250205575,0.9742942506036202,5.018117172951579,1.0,0.01835169804195399,0.022051266886728954
21.0,-0.037944419017850194,0.9766811725062471,4.993064707581775,1.0,0.018556732758524135,0.021697041611115048
22.0,-0.0364383963581342,0.9786502483440592,4.976149280811095,1.0,0.018740885397471096,0.02157859151424507
23.0,-0.03508005570175946,0.9800178013515002,4.952204396624917,1.0,0.018914314275266304,0.021350102070659568
24.0,-0.033804235899069626,0.9810272200646136,4.932156871187817,1.0,0.01907298077193644,0.021219898238932347
25.0,-0.03261850420117131,0.9809144139826858,4.90656736498724,1.0,0.019221321278822867,0.020987764410103735
26.0,-0.031492524547557556,0.9814081462076258,4.886889546948443,1.0,0.019355606740342937,0.020712043779198802
27.0,-0.030418065075500753,0.9809286298314117,4.862677922489775,1.0,0.019474580571546295,0.020522379799568086
28.0,-0.029399864673618284,0.9804733875425072,4.840392521856142,1.0,0.019582205745206138,0.020472475998254025
29.0,-0.028450856933146532,0.980085679653525,4.816044089666982,1.0,0.019684457727585154,0.020375468315636875
30.0,-0.02752677790339346,0.9794460665172655,4.79124195639072,1.0,0.01977962585732699,0.02039668861239677
31.0,-0.026639610477666414,0.979093684650376,4.769072286492434,1.0,0.019872668917277125,0.020107790985953465
32.0,-0.025802343607366766,0.9784036341675956,4.742136033635065,1.0,0.01995123972371306,0.01998318344223881
33.0,-0.02499281669014796,0.9780837498613068,4.707911067920866,1.0,0.020022402986921935,0.0200612716067298
34.0,-0.02418159123948674,0.9777000206847907,4.680878359293714,1.0,0.020094517042509724,0.01996373505595839
35.0,-0.0234238002080027,0.9768572571293375,4.660868626941902,1.0,0.020160507285938586,0.01987199881442326
36.0,-0.02269090751579781,0.9761083908000744,4.636107161216093,1.0,0.020220806816698408,0.01981513290885081
37.0,-0.021972534664467407,0.9754763002586347,4.614610231976529,1.0,0.020276998589231467,0.0198938530800623
38.0,-0.021286517148966854,0.9755701973401504,4.574456598240318,1.0,0.020334636471521755,0.019948651343979405
39.0,-0.020644897081285654,0.9752217570982837,4.552523837567604,1.0,0.020392698977038097,0.02004948469133669
40.0,-0.019996899464713135,0.9748210113577933,4.527471153241852,1.0,0.02045300261765814,0.020196370372610767
41.0,-0.019409113369005665,0.9747781516580085,4.501841367285716,1.0,0.020517298634813913,0.02040551233157399
42.0,-0.018825639966677195,0.9747812190428126,4.472584790053611,1.0,0.020587928962144092,0.020426933631783262
43.0,-0.018217424571385348,0.9746954883331542,4.44896503106486,1.0,0.020657153612782413,0.020449779253455765
44.0,-0.01766407334914885,0.9742369369266747,4.426193383383308,1.0,0.020725067299553274,0.020604842315750906
45.0,-0.017133340997075655,0.9743909838971946,4.399038971455532,1.0,0.020796992914088427,0.020657716840477805
46.0,-0.016613332383721646,0.9737513041517504,4.383037541641567,1.0,0.020868693365822748,0.02070091466864385
47.0,-0.016093747923495275,0.9737257645020921,4.35208418234573,1.0,0.020939778247805796,0.020763684260900632
48.0,-0.015600017425205547,0.9743098984540057,4.325051884744065,1.0,0.021011040590488944,0.020799154421235345
49.0,-0.015132884173940245,0.9742551884167147,4.302908919898944,1.0,0.021081372925844992,0.02105861414203173
50.0,-0.014698546398219325,0.9739663515229183,4.282991109980306,1.0,0.021159758980631514,0.021128053735498746
51.0,-0.014239513669895806,0.974197431724814,4.260723205757974,1.0,0.02123830721945583,0.02113781522291365
52.0,-0.013820355494650674,0.9741703938024042,4.238448421712,1.0,0.021314614595134618,0.02114609435732998
53.0,-0.013412926550044725,0.9745813640630827,4.213138324138315,1.0,0.021388693125984477,0.02120780812951875
54.0,-0.012986093173672645,0.9751181540536739,4.190535148378354,1.0,0.021462753188469692,0.02117731806633249
55.0,-0.01261973999423799,0.9754052528873712,4.165264944035487,1.0,0.021533097701632836,0.021188485662780393
56.0,-0.012234544171032804,0.9754275643540625,4.144109221176688,1.0,0.02160151574650194,0.021334022648246055
57.0,-0.011915588010165415,0.9755179223579418,4.1264720797677095,1.0,0.021673441971164893,0.02139147440888793
58.0,-0.0115575379217992,0.9754346817342034,4.1051002301981745,1.0,0.021745229212512724,0.021465654758288533
59.0,-0.011241216821948796,0.9761468085846265,4.090531123698767,1.0,0.02181754648291912,0.021523209658243992
60.0,-0.010913850737686276,0.9764260380138378,4.066022088679223,1.0,0.021889706660734132,0.021504390707432902
61.0,-0.010575385363830823,0.9765573470973566,4.050271006185274,1.0,0.021958654915447406,0.02169409671272606
62.0,-0.01029636757097919,0.9760725575672958,4.0404394517017215,1.0,0.022032841042646405,0.021864703078361854
63.0,-0.010010995106059496,0.9762080592825871,4.016404102988899,1.0,0.022111311496940723,0.022035885599324886
64.0,-0.009740756094967412,0.9765119346399416,3.9953045499748416,1.0,0.02219393545883544,0.022190315901179796
65.0,-0.009515431224680142,0.9767409051456215,3.977508095432258,1.0,0.022279890286916702,0.022360618967038972
66.0,-0.009287469748341139,0.977033730507591,3.965613313251987,1.0,0.022369693620832402,0.022314154486864343
67.0,-0.00902384505566096,0.9768497279609936,3.9539311411817653,1.0,0.022454538935530143,0.02236498411989496
68.0,-0.0087623338375519,0.9771562101518838,3.9258225662947246,1.0,0.022538489704739095,0.02232728547127838
69.0,-0.008522994176423162,0.9769080612019908,3.9210112370227,1.0,0.02261803113650928,0.022405422241165134
70.0,-0.008290113348538011,0.9761637838123004,3.9206547167675176,1.0,0.02269794742261875,0.02253940005355503
71.0,-0.008092755295322452,0.9766308523329161,3.9017130723356153,1.0,0.022780459935585366,0.022584358393273964
72.0,-0.007860306326943933,0.9766588771327108,3.890709632556713,1.0,0.0228619154223517,0.022574959828563237
73.0,-0.00768346723543374,0.9769546724166596,3.8804691727116127,1.0,0.022940170592362315,0.022461206015593833
74.0,-0.007464323511829064,0.9768013817551306,3.877473140023467,1.0,0.023011161156372126,0.02248960264400469
75.0,-0.007353436494962642,0.9769220812971863,3.8640290341421175,1.0,0.023080825895332134,0.02267410930850708
76.0,-0.0071662158429578945,0.9769627896381181,3.855663568200626,1.0,0.023155456314002988,0.022584310866418676
77.0,-0.007005387165008843,0.976844842914399,3.8474540973837534,1.0,0.023223903273513834,0.022721975420726646
78.0,-0.006903286669830516,0.9766394394798635,3.842069736671161,1.0,0.02329548175575981,0.022835814631560945
79.0,-0.006800873125455405,0.9769057902543323,3.833596403103279,1.0,0.02336912665238688,0.022934644750539527
80.0,-0.006604542477087543,0.9770115055064222,3.8115112641180056,1.0,0.023444163785826894,0.023034552427211915
81.0,-0.006412555268592023,0.9768990444181576,3.8124907878819716,1.0,0.023520583397554945,0.023204175940541256
82.0,-0.006215112504713932,0.977102578350265,3.8086573539437176,1.0,0.023601122609299544,0.023333446008102155
83.0,-0.006060163887562057,0.9764452655076774,3.818407817337338,1.0,0.023684020006988677,0.023204379926218884
84.0,-0.005929220895523347,0.976617877152538,3.805374733727453,1.0,0.023758858938355304,0.023251606027808916
85.0,-0.005778015939355576,0.9767755636806907,3.7998847599764165,1.0,0.023832974776614623,0.023267374748943512
86.0,-0.005669264276512464,0.9767970410850616,3.789782095485514,1.0,0.0239051346835263,0.0233351679758642
87.0,-0.00560611591334809,0.9768648597653984,3.789395345999639,1.0,0.02397748663563299,0.02334621271873122
88.0,-0.005517516388113463,0.9770910962979477,3.789071475664771,1.0,0.02404775217508391,0.023411631946985208
89.0,-0.005432709339753689,0.977542638333663,3.775014954707852,1.0,0.024118177824353118,0.023515741826469518
90.0,-0.005283029617163461,0.9773600039253141,3.7689883840612297,1.0,0.024190305212302084,0.02347164411864166
91.0,-0.00514146003687097,0.9775567715945406,3.763157055963431,1.0,0.02425814074813045,0.023527049295388104
92.0,-0.0049983336268202404,0.9780110020098175,3.755064529282132,1.0,0.02432581481630451,0.023615892356344616
93.0,-0.00491928763340348,0.9779719833639381,3.7536633513389286,1.0,0.024394667302765505,0.02369187303822467
94.0,-0.0048778939554011535,0.9780011296730075,3.7472312694302046,1.0,0.024464139575145413,0.023806720457607816
95.0,-0.004796302656234444,0.9780729259037225,3.7558900490424554,1.0,0.02453576923764509,0.023838939157476053
96.0,-0.004699576263482414,0.9774931478495722,3.7590138910612088,1.0,0.024606171952311504,0.023885151718212445
97.0,-0.004635565459380084,0.977675543355672,3.7658991070419146,1.0,0.024675946454796933,0.023889430144472163
98.0,-0.004550397107446079,0.9780918390422612,3.74903413621157,1.0,0.024743441219082115,0.023998041404650478
99.0,-0.004455476836262627,0.9779330805801267,3.7525395613147645,1.0,0.02481290733698409,0.02404998984389712
100.0,-0.004428327316671103,0.9779813010468177,3.745605048723562,1.0,0.02488200764087213,0.024171839397799356
101.0,-0.004409965150670307,0.978003941584648,3.7484361210212382,1.0,0.024953550645233653,0.024148141619753954
102.0,-0.00429616689517868,0.9775126333576215,3.7496713344601718,1.0,0.02502163386735378,0.02423829909466782
103.0,-0.004232112676402246,0.9774025870600628,3.7573996139863786,1.0,0.025090930473352327,0.024380954977518503
104.0,-0.004245406485721645,0.977701189876632,3.7653534994194784,1.0,0.025163495315095662,0.024489216279662725
105.0,-0.004206100686094222,0.9779425171717878,3.7590443864517353,1.0,0.02523783789956963,0.0246558897284868
106.0,-0.0042093567621963816,0.9778055291853883,3.7503600822856202,1.0,0.02531622862398532,0.024742408305959765
107.0,-0.004188323956196437,0.9780748623296527,3.755197057182651,1.0,0.02539532025816016,0.024986406580711735
108.0,-0.004131819850972988,0.9776988138230739,3.7525237978796313,1.0,0.025481387314001555,0.024980848170944647
109.0,-0.004148226663488942,0.9775770601739796,3.7535608090584596,1.0,0.0255642007188188,0.024872928524588674
110.0,-0.004037379117275877,0.977520446573938,3.7661084844209927,1.0,0.025639781802048595,0.024909006720746685
111.0,-0.003975198253790218,0.9777397914136817,3.752626226914466,1.0,0.025714147293200762,0.025005015775306155
112.0,-0.0038694369648953272,0.978017919504342,3.7432720658073353,1.0,0.025789733938358074,0.02518574400704099
113.0,-0.003803992226308007,0.9778624840018353,3.750632023359916,1.0,0.0258698832081708,0.02527987335943687
114.0,-0.003785015279576552,0.9778197180345312,3.759677962795003,1.0,0.02595096855588113,0.02543620569489813
115.0,-0.003756371581877732,0.9770017202655404,3.7788326183866934,1.0,0.026035447789496714,0.02550424915989665
116.0,-0.003739805229231644,0.9770145458258837,3.7847567070789223,1.0,0.026119668697359287,0.025445780260269307
117.0,-0.0036528810794145853,0.9772891847522663,3.784286925925037,1.0,0.026198575631906355,0.025442737313121182
118.0,-0.0035833606109841893,0.9773816584633613,3.7849874809317,1.0,0.02627457186646563,0.025466693361649362
119.0,-0.003588133617559832,0.9777684317889868,3.7735302229555234,1.0,0.026348837320119944,0.0253513371367778
120.0,-0.0035430361122145712,0.9773086502932062,3.782634398194535,1.0,0.02641586165465689,0.025495941649691614
121.0,-0.0034720212904062932,0.9778144388849722,3.7784072212538633,1.0,0.026486294984628032,0.025657822724864478
122.0,-0.0035026167821733253,0.9778946647315354,3.7731803721062493,1.0,0.026560710582573217,0.025639541002658472
123.0,-0.0035257341294945865,0.9776362076647089,3.778641054765316,1.0,0.02663175795065702,0.025606845677485418
124.0,-0.0034713558749339293,0.977404837030552,3.7683881865853217,1.0,0.026698980370162835,0.02576059827201426
125.0,-0.003427542363232959,0.9773841583101242,3.7830873903533795,1.0,0.026769973973646333,0.025786196925333175
126.0,-0.0034619067389167536,0.9774476781629909,3.7841705110330714,1.0,0.026839482254291426,0.025906477024771273
127.0,-0.0034090638645829312,0.9778802310396935,3.7767006321755052,1.0,0.026911344319263158,0.026198976958497353
128.0,-0.0034177532243224616,0.9776466240341837,3.776381953747972,1.0,0.026992366125010096,0.026414791030172767
129.0,-0.0035263322338185974,0.9776523360595638,3.7723247784395175,1.0,0.02707915532361429,0.02644572830787362
130.0,-0.003462508057574697,0.9774831267615158,3.7827148806505115,1.0,0.027164114474567562,0.026510126207793906
131.0,-0.003437344699601286,0.9776172558831233,3.7833816332880446,1.0,0.027248644479597427,0.026593649121458618
132.0,-0.0034554032121490537,0.9780352657587645,3.787414495688779,1.0,0.02733352501188258,0.026536244671759066
133.0,-0.0033726281382700134,0.978185967839388,3.781808519232044,1.0,0.027413105519477753,0.026659112187376363
134.0,-0.0032916963789785536,0.9784582274043068,3.782861735004758,1.0,0.027494782207982828,0.026803003595417922
135.0,-0.003332279444588345,0.9781328457439462,3.7813724989961894,1.0,0.02757932063721885,0.02684566948334046
136.0,-0.003312858982197359,0.9784051330428604,3.7771261578521482,1.0,0.027662573979729654,0.026950438333114966
137.0,-0.0033008973291020283,0.9785616642224226,3.791698784914614,1.0,0.027747072421725905,0.02699063878461401
138.0,-0.0032288176296718487,0.9787516267329651,3.782754055956456,1.0,0.027830188622816852,0.027034817786494678
139.0,-0.003236751772569386,0.9783198760705756,3.7984368297863185,1.0,0.02791212696270244,0.0270205045575796
140.0,-0.003173266351504927,0.9783195535734631,3.7939011976325943,1.0,0.027990590483264105,0.02715487717393708
141.0,-0.003148284404069064,0.9787922912208428,3.7981481002817516,1.0,0.02807164504526353,0.027217357488743845
142.0,-0.0031160144207544403,0.9784605468052112,3.7955804811928475,1.0,0.02815232387248679,0.02732220749285318
143.0,-0.003163296173095919,0.9779000589737107,3.8059014648787697,1.0,0.028234331398406018,0.02743562634582013
144.0,-0.003235873818485884,0.9779369347931006,3.808026810003327,1.0,0.028317962441205977,0.02746409309448769
145.0,-0.0032161219782667976,0.978233861228208,3.814171025868875,1.0,0.028399766481550664,0.027587362140821872
146.0,-0.003197276173661277,0.9780656281329665,3.816061162067333,1.0,0.028483601167432128,0.027602150090057877
147.0,-0.0032476663964633133,0.9781036337028053,3.821010352409481,1.0,0.02856505363206836,0.027427648494487394
148.0,-0.003061925559023442,0.9782159782327294,3.8139776297236483,1.0,0.028636638673985755,0.02740358735020559
149.0,-0.0030973546277653537,0.9779873783826111,3.8265338832529836,1.0,0.028704717928631975,0.027524259749100922
150.0,-0.0031517921411530455,0.9775275375329461,3.827448036825989,1.0,0.02877520439452585,0.02769551025752765
151.0,-0.003196039352758566,0.9779669656096625,3.8423328893804536,1.0,0.028850036150651872,0.027904885001361686
152.0,-0.0031260384547524174,0.9783299156040055,3.825995685169255,1.0,0.028930586056232152,0.028050932467932915
153.0,-0.003052967492763804,0.9784383565668208,3.8323274976601733,1.0,0.029014116313073268,0.028128276925319252
154.0,-0.0029949263369258615,0.9785607455599785,3.840005024935276,1.0,0.029097770740689477,0.0282554956444113
155.0,-0.003040066959944742,0.9780544252709035,3.840142086584099,1.0,0.029183537869394267,0.028074314279419324
156.0,-0.003004612118984223,0.9782795788894468,3.835561590611926,1.0,0.029259005769135607,0.028256733291827707
157.0,-0.002974860976031497,0.9780182048491571,3.851126093203072,1.0,0.02933908457251362,0.028504184013010622
158.0,-0.0029311230465738003,0.9779495097113128,3.849523062511067,1.0,0.029426209748054998,0.02866398455559231
159.0,-0.003001796107255115,0.9777859232681662,3.8570217986749857,1.0,0.029516625645300512,0.028805706024344548
160.0,-0.0029552439449656155,0.9779395435425868,3.8622920749147815,1.0,0.029609493555615433,0.028762040508887466
161.0,-0.0029163896045589924,0.9779764302354422,3.853483114170532,1.0,0.02969730939706115,0.028820907859184848
162.0,-0.0029131573256235845,0.9783540681946797,3.861704926579859,1.0,0.029784353910684125,0.02888477040174147
163.0,-0.0029381519316041033,0.978412317516927,3.8628014718710943,1.0,0.029870855412429904,0.028940653682455124
164.0,-0.0028780483189139337,0.9786804525474341,3.872303897610729,1.0,0.029956516097703504,0.029014762272120676
165.0,-0.0028726557547778444,0.9786127239578576,3.8722178650230905,1.0,0.030042092600713027,0.029261661653134007
166.0,-0.0029156574312740793,0.9788786112983601,3.8609229769352345,1.0,0.03013449711521804,0.02928344803618347
167.0,-0.0029676941904073994,0.9787180815692773,3.872929105098352,1.0,0.03022448497979678,0.029298417362024567
168.0,-0.00307735575254501,0.978618632773689,3.8770293068155595,1.0,0.03031186833398451,0.029478503282672132
169.0,-0.003158591618019719,0.9783911721978231,3.874867973240591,1.0,0.03040334658705574,0.029578549969664927
170.0,-0.0031212873083565863,0.9788071511843701,3.86996139373249,1.0,0.030495575607749497,0.02970184267558605
171.0,-0.0030754135051600682,0.97871401833215,3.872269421848371,1.0,0.03058945646125188,0.02973751120885905
172.0,-0.0031014733831210735,0.9787108198893886,3.874524030957011,1.0,0.03068142469358732,0.02982438348214424
173.0,-0.0030939513350342167,0.9791694931924444,3.8730542207394536,1.0,0.03077359737120497,0.030014292850440348
174.0,-0.0031657590925361152,0.97892645957538,3.8763119600802893,1.0,0.03087008764160394,0.030009736388636805
175.0,-0.0031761997260443715,0.978441872769854,3.895119103327686,1.0,0.030962963968362844,0.029943370555759168
176.0,-0.003176949148870239,0.9780419984427141,3.8942121580078783,1.0,0.03104988291586086,0.030033406037008423
177.0,-0.003152553200622846,0.9780636963768442,3.907731540652956,1.0,0.031137309514649873,0.030227176628780987
178.0,-0.0031175742751742524,0.9783911889027702,3.9071521459369447,1.0,0.031229374251003417,0.030052790064897153
179.0,-0.0030626105250746204,0.9786577244444128,3.8991422080734246,1.0,0.031311186806926336,0.030192913979578295
180.0,-0.0030709677107514763,0.9784939688465979,3.910317751887983,1.0,0.031395688947399844,0.03032841757861833
181.0,-0.003096014561837934,0.9788644231099856,3.898531577566099,1.0,0.031482601801839816,0.030392447546620495
